Data from FLMS030651_10-06-24-645.txt Node
Date: Wed Nov 13 10:06:24 CET 2019
User: Student
Spectrometer: FLMS03065
Trigger mode: 0
Integration Time (sec): 1,000000E-1
Scans to average: 1
Electric dark correction enabled: true
Nonlinearity correction enabled: false
Boxcar width: 0
XAxis mode: Wavelengths
Number of Pixels in Spectrum: 2048
>>>>>Begin Spectral Data<<<<<
339,621	38,68
340,007	38,68
340,392	38,68
340,778	-48,7
341,164	-51,12
341,549	-19,57
341,935	-89,96
342,32	-72,97
342,706	-24,42
343,091	-41,41
343,476	-38,99
343,862	-22
344,247	26,55
344,632	21,69
345,017	-41,41
345,402	-38,99
345,787	89,66
346,172	50,82
346,557	106,65
346,942	70,24
347,327	24,12
347,712	135,77
348,096	237,72
348,481	106,65
348,866	155,19
349,25	249,85
349,635	179,46
350,019	220,73
350,404	213,44
350,788	266,84
351,172	245
351,557	211,02
351,941	322,67
352,325	363,93
352,709	278,98
353,093	325,1
353,478	308,11
353,862	281,41
354,245	376,07
354,629	351,8
355,013	249,85
355,397	346,94
355,781	320,24
356,165	346,94
356,548	281,41
356,932	342,09
357,315	346,94
357,699	295,97
358,082	312,96
358,466	407,62
358,849	261,99
359,233	269,27
359,616	322,67
359,999	349,37
360,382	388,2
360,765	329,95
361,149	317,81
361,532	339,66
361,915	315,39
362,297	359,08
362,68	325,1
363,063	274,12
363,446	310,53
363,829	366,36
364,211	257,13
364,594	317,81
364,977	368,79
365,359	334,8
365,742	346,94
366,124	274,12
366,507	308,11
366,889	310,53
367,271	312,96
367,654	254,71
368,036	266,84
368,418	278,98
368,8	329,95
369,182	286,26
369,564	359,08
369,946	288,69
370,328	293,54
370,71	300,82
371,092	274,12
371,474	320,24
371,855	259,56
372,237	295,97
372,619	281,41
373	349,37
373,382	271,7
373,763	269,27
374,145	317,81
374,526	354,22
374,907	305,68
375,289	291,11
375,67	298,4
376,051	254,71
376,432	274,12
376,813	293,54
377,194	305,68
377,575	327,52
377,956	271,7
378,337	291,11
378,718	339,66
379,099	278,98
379,48	303,25
379,86	295,97
380,241	339,66
380,622	339,66
381,002	298,4
381,383	223,15
381,763	351,8
382,144	310,53
382,524	349,37
382,904	342,09
383,285	295,97
383,665	339,66
384,045	315,39
384,425	310,53
384,805	305,68
385,185	390,63
385,565	310,53
385,945	322,67
386,325	276,55
386,705	303,25
387,085	261,99
387,464	320,24
387,844	334,8
388,224	283,83
388,603	281,41
388,983	325,1
389,362	334,8
389,742	327,52
390,121	237,72
390,501	329,95
390,88	308,11
391,259	395,49
391,638	303,25
392,017	249,85
392,397	329,95
392,776	342,09
393,155	312,96
393,534	291,11
393,912	308,11
394,291	320,24
394,67	339,66
395,049	315,39
395,428	286,26
395,806	274,12
396,185	300,82
396,563	305,68
396,942	298,4
397,32	366,36
397,699	329,95
398,077	300,82
398,456	366,36
398,834	322,67
399,212	356,65
399,59	334,8
399,968	305,68
400,346	337,23
400,724	388,2
401,102	337,23
401,48	332,38
401,858	220,73
402,236	371,21
402,614	363,93
402,992	337,23
403,369	305,68
403,747	390,63
404,124	315,39
404,502	351,8
404,879	346,94
405,257	312,96
405,634	291,11
406,012	390,63
406,389	329,95
406,766	337,23
407,143	315,39
407,52	368,79
407,898	295,97
408,275	349,37
408,652	298,4
409,029	312,96
409,405	305,68
409,782	312,96
410,159	359,08
410,536	283,83
410,913	300,82
411,289	346,94
411,666	339,66
412,042	291,11
412,419	276,55
412,795	446,46
413,172	283,83
413,548	329,95
413,924	344,51
414,301	274,12
414,677	295,97
415,053	368,79
415,429	291,11
415,805	356,65
416,181	295,97
416,557	283,83
416,933	349,37
417,309	378,49
417,685	332,38
418,061	322,67
418,436	325,1
418,812	310,53
419,188	305,68
419,563	310,53
419,939	383,35
420,314	356,65
420,69	412,48
421,065	346,94
421,44	305,68
421,816	400,34
422,191	283,83
422,566	376,07
422,941	303,25
423,316	371,21
423,691	383,35
424,066	276,55
424,441	322,67
424,816	305,68
425,191	310,53
425,566	332,38
425,94	240,14
426,315	315,39
426,69	380,92
427,064	354,22
427,439	339,66
427,813	312,96
428,188	264,42
428,562	276,55
428,936	380,92
429,311	257,13
429,685	315,39
430,059	368,79
430,433	342,09
430,807	373,64
431,181	308,11
431,555	366,36
431,929	325,1
432,303	310,53
432,677	278,98
433,051	288,69
433,425	312,96
433,798	356,65
434,172	422,18
434,546	400,34
434,919	327,52
435,293	286,26
435,666	361,5
436,04	327,52
436,413	417,33
436,786	361,5
437,159	405,19
437,533	427,04
437,906	395,49
438,279	363,93
438,652	368,79
439,025	346,94
439,398	349,37
439,771	371,21
440,144	298,4
440,516	310,53
440,889	424,61
441,262	402,77
441,635	402,77
442,007	337,23
442,38	247,42
442,752	356,65
443,125	366,36
443,497	308,11
443,87	298,4
444,242	308,11
444,614	322,67
444,986	269,27
445,359	346,94
445,731	249,85
446,103	371,21
446,475	286,26
446,847	366,36
447,219	356,65
447,59	342,09
447,962	412,48
448,334	346,94
448,706	337,23
449,077	342,09
449,449	393,06
449,821	322,67
450,192	346,94
450,564	317,81
450,935	305,68
451,306	337,23
451,678	344,51
452,049	385,78
452,42	288,69
452,791	342,09
453,163	356,65
453,534	308,11
453,905	342,09
454,276	332,38
454,647	363,93
455,017	346,94
455,388	390,63
455,759	320,24
456,13	451,31
456,5	346,94
456,871	429,47
457,242	407,62
457,612	373,64
457,983	322,67
458,353	342,09
458,723	344,51
459,094	291,11
459,464	366,36
459,834	266,84
460,204	325,1
460,575	395,49
460,945	349,37
461,315	356,65
461,685	337,23
462,055	356,65
462,425	400,34
462,794	383,35
463,164	332,38
463,534	385,78
463,904	380,92
464,273	354,22
464,643	293,54
465,012	305,68
465,382	371,21
465,751	344,51
466,121	298,4
466,49	315,39
466,859	366,36
467,228	325,1
467,598	351,8
467,967	395,49
468,336	303,25
468,705	356,65
469,074	332,38
469,443	325,1
469,812	308,11
470,181	320,24
470,549	342,09
470,918	363,93
471,287	293,54
471,655	312,96
472,024	320,24
472,393	378,49
472,761	361,5
473,129	310,53
473,498	378,49
473,866	368,79
474,234	305,68
474,603	271,7
474,971	305,68
475,339	354,22
475,707	407,62
476,075	298,4
476,443	349,37
476,811	380,92
477,179	361,5
477,547	359,08
477,915	327,52
478,282	344,51
478,65	339,66
479,018	344,51
479,385	422,18
479,753	298,4
480,12	322,67
480,488	286,26
480,855	317,81
481,222	327,52
481,59	346,94
481,957	295,97
482,324	303,25
482,691	356,65
483,058	332,38
483,425	366,36
483,792	346,94
484,159	402,77
484,526	264,42
484,893	373,64
485,26	312,96
485,627	385,78
485,993	400,34
486,36	378,49
486,727	395,49
487,093	334,8
487,46	337,23
487,826	368,79
488,192	407,62
488,559	385,78
488,925	376,07
489,291	390,63
489,658	334,8
490,024	305,68
490,39	419,76
490,756	337,23
491,122	349,37
491,488	332,38
491,854	395,49
492,219	359,08
492,585	380,92
492,951	412,48
493,317	417,33
493,682	380,92
494,048	407,62
494,413	344,51
494,779	298,4
495,144	320,24
495,51	388,2
495,875	407,62
496,24	322,67
496,606	395,49
496,971	388,2
497,336	461,02
497,701	325,1
498,066	325,1
498,431	327,52
498,796	334,8
499,161	380,92
499,526	376,07
499,89	414,9
500,255	337,23
500,62	385,78
500,985	325,1
501,349	424,61
501,714	327,52
502,078	312,96
502,443	400,34
502,807	351,8
503,171	395,49
503,536	371,21
503,9	349,37
504,264	325,1
504,628	378,49
504,992	278,98
505,356	349,37
505,72	431,89
506,084	361,5
506,448	344,51
506,812	327,52
507,176	397,91
507,539	366,36
507,903	315,39
508,267	361,5
508,63	376,07
508,994	363,93
509,357	278,98
509,721	366,36
510,084	310,53
510,447	332,38
510,811	351,8
511,174	371,21
511,537	346,94
511,9	373,64
512,263	373,64
512,626	257,13
512,989	320,24
513,352	380,92
513,715	303,25
514,078	342,09
514,441	332,38
514,803	276,55
515,166	393,06
515,529	344,51
515,891	334,8
516,254	354,22
516,616	317,81
516,979	376,07
517,341	371,21
517,703	395,49
518,066	293,54
518,428	400,34
518,79	322,67
519,152	431,89
519,514	419,76
519,876	310,53
520,238	329,95
520,6	354,22
520,962	361,5
521,324	339,66
521,685	388,2
522,047	266,84
522,409	337,23
522,77	329,95
523,132	300,82
523,494	291,11
523,855	317,81
524,216	308,11
524,578	422,18
524,939	334,8
525,3	300,82
525,662	395,49
526,023	380,92
526,384	288,69
526,745	351,8
527,106	320,24
527,467	298,4
527,828	402,77
528,189	429,47
528,549	427,04
528,91	373,64
529,271	308,11
529,631	332,38
529,992	417,33
530,353	320,24
530,713	346,94
531,074	342,09
531,434	359,08
531,794	427,04
532,155	300,82
532,515	380,92
532,875	363,93
533,235	397,91
533,595	354,22
533,955	349,37
534,315	378,49
534,675	312,96
535,035	363,93
535,395	337,23
535,755	349,37
536,114	383,35
536,474	407,62
536,834	317,81
537,193	303,25
537,553	315,39
537,912	322,67
538,272	349,37
538,631	371,21
538,991	373,64
539,35	327,52
539,709	388,2
540,068	373,64
540,427	422,18
540,786	390,63
541,146	376,07
541,504	359,08
541,863	390,63
542,222	424,61
542,581	514,42
542,94	526,56
543,299	446,46
543,657	451,31
544,016	531,41
544,374	562,96
544,733	495
545,091	504,71
545,45	555,68
545,808	458,59
546,167	577,53
546,525	553,25
546,883	601,8
547,241	572,67
547,599	645,49
547,957	599,37
548,315	606,65
548,673	470,73
549,031	538,69
549,389	439,18
549,747	473,16
550,105	385,78
550,462	414,9
550,82	395,49
551,178	397,91
551,535	351,8
551,893	400,34
552,25	395,49
552,608	342,09
552,965	388,2
553,322	402,77
553,679	334,8
554,037	390,63
554,394	305,68
554,751	315,39
555,108	380,92
555,465	293,54
555,822	339,66
556,179	342,09
556,536	288,69
556,892	257,13
557,249	349,37
557,606	383,35
557,962	354,22
558,319	458,59
558,676	405,19
559,032	329,95
559,389	371,21
559,745	380,92
560,101	368,79
560,458	327,52
560,814	402,77
561,17	325,1
561,526	368,79
561,882	373,64
562,238	337,23
562,594	317,81
562,95	308,11
563,306	339,66
563,662	342,09
564,018	278,98
564,373	322,67
564,729	361,5
565,085	373,64
565,44	325,1
565,796	376,07
566,151	354,22
566,506	325,1
566,862	332,38
567,217	424,61
567,572	410,05
567,928	327,52
568,283	419,76
568,638	407,62
568,993	371,21
569,348	378,49
569,703	356,65
570,058	325,1
570,413	349,37
570,767	315,39
571,122	349,37
571,477	390,63
571,831	356,65
572,186	383,35
572,541	337,23
572,895	315,39
573,25	281,41
573,604	283,83
573,958	346,94
574,313	337,23
574,667	264,42
575,021	344,51
575,375	359,08
575,729	361,5
576,083	410,05
576,437	305,68
576,791	342,09
577,145	363,93
577,499	368,79
577,853	407,62
578,206	346,94
578,56	325,1
578,914	293,54
579,267	334,8
579,621	373,64
579,974	371,21
580,328	429,47
580,681	305,68
581,034	342,09
581,388	410,05
581,741	422,18
582,094	407,62
582,447	346,94
582,8	393,06
583,153	417,33
583,506	337,23
583,859	359,08
584,212	332,38
584,565	327,52
584,917	339,66
585,27	400,34
585,623	295,97
585,975	354,22
586,328	312,96
586,68	402,77
587,033	344,51
587,385	366,36
587,737	278,98
588,09	368,79
588,442	444,03
588,794	385,78
589,146	405,19
589,498	385,78
589,85	354,22
590,202	342,09
590,554	337,23
590,906	414,9
591,258	356,65
591,61	361,5
591,961	354,22
592,313	366,36
592,665	414,9
593,016	376,07
593,368	422,18
593,719	312,96
594,071	366,36
594,422	308,11
594,773	327,52
595,125	380,92
595,476	441,6
595,827	342,09
596,178	317,81
596,529	317,81
596,88	242,57
597,231	346,94
597,582	363,93
597,933	351,8
598,284	308,11
598,634	373,64
598,985	322,67
599,336	380,92
599,686	412,48
600,037	356,65
600,387	419,76
600,738	393,06
601,088	354,22
601,438	380,92
601,789	346,94
602,139	422,18
602,489	390,63
602,839	400,34
603,189	393,06
603,539	380,92
603,889	342,09
604,239	383,35
604,589	266,84
604,939	317,81
605,289	325,1
605,638	363,93
605,988	405,19
606,338	337,23
606,687	327,52
607,037	400,34
607,386	317,81
607,736	332,38
608,085	385,78
608,434	346,94
608,783	354,22
609,133	395,49
609,482	383,35
609,831	346,94
610,18	405,19
610,529	351,8
610,878	444,03
611,227	434,32
611,576	414,9
611,924	492,57
612,273	543,55
612,622	555,68
612,97	599,37
613,319	550,83
613,667	473,16
614,016	499,86
614,364	490,15
614,713	478,01
615,061	424,61
615,409	419,76
615,757	400,34
616,106	424,61
616,454	407,62
616,802	463,45
617,15	373,64
617,498	315,39
617,846	385,78
618,193	388,2
618,541	424,61
618,889	395,49
619,237	410,05
619,584	444,03
619,932	349,37
620,279	332,38
620,627	337,23
620,974	378,49
621,322	303,25
621,669	305,68
622,016	325,1
622,364	380,92
622,711	344,51
623,058	300,82
623,405	298,4
623,752	308,11
624,099	393,06
624,446	322,67
624,793	402,77
625,14	332,38
625,486	269,27
625,833	419,76
626,18	363,93
626,526	356,65
626,873	402,77
627,219	453,74
627,566	368,79
627,912	385,78
628,259	337,23
628,605	385,78
628,951	366,36
629,297	344,51
629,643	361,5
629,989	366,36
630,335	298,4
630,681	293,54
631,027	351,8
631,373	422,18
631,719	351,8
632,065	342,09
632,411	363,93
632,756	397,91
633,102	351,8
633,447	427,04
633,793	359,08
634,138	395,49
634,484	359,08
634,829	383,35
635,174	300,82
635,52	373,64
635,865	376,07
636,21	329,95
636,555	337,23
636,9	295,97
637,245	293,54
637,59	376,07
637,935	344,51
638,28	337,23
638,625	332,38
638,969	461,02
639,314	269,27
639,659	444,03
640,003	385,78
640,348	441,6
640,692	395,49
641,037	303,25
641,381	259,56
641,725	342,09
642,07	366,36
642,414	361,5
642,758	417,33
643,102	419,76
643,446	295,97
643,79	298,4
644,134	354,22
644,478	393,06
644,822	295,97
645,166	327,52
645,509	366,36
645,853	312,96
646,197	351,8
646,54	288,69
646,884	346,94
647,227	245
647,571	325,1
647,914	373,64
648,257	337,23
648,601	351,8
648,944	402,77
649,287	390,63
649,63	361,5
649,973	332,38
650,316	354,22
650,659	380,92
651,002	349,37
651,345	397,91
651,688	300,82
652,03	434,32
652,373	383,35
652,716	393,06
653,058	412,48
653,401	378,49
653,743	371,21
654,086	346,94
654,428	342,09
654,771	317,81
655,113	344,51
655,455	247,42
655,797	400,34
656,139	320,24
656,481	346,94
656,823	303,25
657,165	356,65
657,507	329,95
657,849	329,95
658,191	356,65
658,533	295,97
658,874	351,8
659,216	354,22
659,558	378,49
659,899	439,18
660,241	361,5
660,582	344,51
660,924	283,83
661,265	329,95
661,606	363,93
661,947	383,35
662,289	380,92
662,63	354,22
662,971	349,37
663,312	303,25
663,653	439,18
663,994	412,48
664,335	385,78
664,675	339,66
665,016	368,79
665,357	334,8
665,697	317,81
666,038	283,83
666,379	325,1
666,719	412,48
667,06	390,63
667,4	385,78
667,74	310,53
668,081	283,83
668,421	288,69
668,761	315,39
669,101	317,81
669,441	329,95
669,781	334,8
670,121	356,65
670,461	342,09
670,801	337,23
671,141	261,99
671,481	312,96
671,82	332,38
672,16	325,1
672,499	322,67
672,839	266,84
673,179	378,49
673,518	344,51
673,857	327,52
674,197	266,84
674,536	366,36
674,875	257,13
675,214	293,54
675,554	288,69
675,893	337,23
676,232	293,54
676,571	380,92
676,91	349,37
677,248	366,36
677,587	346,94
677,926	334,8
678,265	363,93
678,603	397,91
678,942	269,27
679,28	380,92
679,619	254,71
679,957	385,78
680,296	339,66
680,634	293,54
680,972	407,62
681,311	344,51
681,649	371,21
681,987	412,48
682,325	431,89
682,663	388,2
683,001	327,52
683,339	344,51
683,677	366,36
684,015	322,67
684,352	329,95
684,69	293,54
685,028	303,25
685,365	361,5
685,703	363,93
686,04	339,66
686,378	344,51
686,715	300,82
687,053	334,8
687,39	317,81
687,727	325,1
688,064	308,11
688,401	349,37
688,738	312,96
689,076	317,81
689,412	342,09
689,749	346,94
690,086	354,22
690,423	305,68
690,76	366,36
691,097	359,08
691,433	312,96
691,77	332,38
692,106	322,67
692,443	337,23
692,779	344,51
693,116	329,95
693,452	334,8
693,788	397,91
694,124	351,8
694,461	371,21
694,797	247,42
695,133	351,8
695,469	354,22
695,805	417,33
696,141	291,11
696,477	414,9
696,812	334,8
697,148	371,21
697,484	315,39
697,82	320,24
698,155	385,78
698,491	342,09
698,826	359,08
699,162	390,63
699,497	295,97
699,832	264,42
700,168	320,24
700,503	325,1
700,838	286,26
701,173	380,92
701,508	315,39
701,843	378,49
702,178	312,96
702,513	366,36
702,848	349,37
703,183	332,38
703,517	334,8
703,852	354,22
704,187	361,5
704,521	383,35
704,856	305,68
705,19	361,5
705,525	400,34
705,859	378,49
706,193	317,81
706,528	419,76
706,862	310,53
707,196	286,26
707,53	383,35
707,864	356,65
708,198	349,37
708,532	422,18
708,866	385,78
709,2	400,34
709,534	356,65
709,868	412,48
710,201	366,36
710,535	356,65
710,868	325,1
711,202	332,38
711,535	346,94
711,869	337,23
712,202	346,94
712,536	317,81
712,869	291,11
713,202	361,5
713,535	332,38
713,868	356,65
714,201	385,78
714,534	286,26
714,867	300,82
715,2	339,66
715,533	351,8
715,866	337,23
716,198	376,07
716,531	334,8
716,864	315,39
717,196	402,77
717,529	361,5
717,861	249,85
718,194	317,81
718,526	351,8
718,858	395,49
719,191	334,8
719,523	312,96
719,855	317,81
720,187	339,66
720,519	342,09
720,851	361,5
721,183	329,95
721,515	293,54
721,847	388,2
722,178	349,37
722,51	359,08
722,842	310,53
723,173	397,91
723,505	339,66
723,837	427,04
724,168	402,77
724,499	295,97
724,831	281,41
725,162	295,97
725,493	383,35
725,824	308,11
726,156	278,98
726,487	315,39
726,818	317,81
727,149	385,78
727,48	439,18
727,81	366,36
728,141	400,34
728,472	346,94
728,803	308,11
729,133	315,39
729,464	366,36
729,795	334,8
730,125	356,65
730,455	337,23
730,786	366,36
731,116	385,78
731,446	351,8
731,777	332,38
732,107	453,74
732,437	308,11
732,767	269,27
733,097	232,86
733,427	344,51
733,757	366,36
734,087	278,98
734,417	317,81
734,746	359,08
735,076	327,52
735,406	351,8
735,735	283,83
736,065	346,94
736,394	368,79
736,724	327,52
737,053	383,35
737,382	325,1
737,712	482,87
738,041	334,8
738,37	366,36
738,699	351,8
739,028	332,38
739,357	385,78
739,686	254,71
740,015	303,25
740,344	261,99
740,673	363,93
741,001	317,81
741,33	339,66
741,659	276,55
741,987	320,24
742,316	298,4
742,644	283,83
742,972	344,51
743,301	327,52
743,629	373,64
743,957	312,96
744,286	325,1
744,614	351,8
744,942	346,94
745,27	278,98
745,598	334,8
745,926	390,63
746,254	407,62
746,581	414,9
746,909	424,61
747,237	356,65
747,565	252,28
747,892	320,24
748,22	332,38
748,547	346,94
748,875	298,4
749,202	310,53
749,529	359,08
749,857	378,49
750,184	380,92
750,511	288,69
750,838	368,79
751,165	378,49
751,492	315,39
751,819	368,79
752,146	400,34
752,473	344,51
752,8	378,49
753,126	312,96
753,453	329,95
753,78	305,68
754,106	322,67
754,433	368,79
754,759	310,53
755,086	320,24
755,412	400,34
755,738	329,95
756,065	407,62
756,391	334,8
756,717	320,24
757,043	329,95
757,369	344,51
757,695	320,24
758,021	376,07
758,347	305,68
758,673	305,68
758,999	366,36
759,324	354,22
759,65	356,65
759,976	288,69
760,301	366,36
760,627	371,21
760,952	332,38
761,278	337,23
761,603	278,98
761,928	361,5
762,253	363,93
762,579	334,8
762,904	434,32
763,229	308,11
763,554	320,24
763,879	405,19
764,204	317,81
764,529	346,94
764,853	356,65
765,178	329,95
765,503	327,52
765,828	342,09
766,152	376,07
766,477	385,78
766,801	393,06
767,126	346,94
767,45	363,93
767,774	351,8
768,099	283,83
768,423	356,65
768,747	283,83
769,071	317,81
769,395	315,39
769,719	276,55
770,043	283,83
770,367	334,8
770,691	380,92
771,014	317,81
771,338	356,65
771,662	291,11
771,986	308,11
772,309	368,79
772,633	327,52
772,956	332,38
773,279	300,82
773,603	308,11
773,926	339,66
774,249	327,52
774,573	363,93
774,896	359,08
775,219	332,38
775,542	325,1
775,865	278,98
776,188	371,21
776,511	363,93
776,833	329,95
777,156	312,96
777,479	395,49
777,801	261,99
778,124	293,54
778,447	354,22
778,769	383,35
779,091	385,78
779,414	359,08
779,736	339,66
780,058	332,38
780,381	346,94
780,703	385,78
781,025	325,1
781,347	339,66
781,669	295,97
781,991	327,52
782,313	351,8
782,635	317,81
782,956	349,37
783,278	278,98
783,6	337,23
783,921	388,2
784,243	327,52
784,565	344,51
784,886	298,4
785,207	366,36
785,529	354,22
785,85	400,34
786,171	274,12
786,492	312,96
786,814	371,21
787,135	312,96
787,456	291,11
787,777	388,2
788,098	339,66
788,418	349,37
788,739	393,06
789,06	305,68
789,381	354,22
789,701	393,06
790,022	368,79
790,342	283,83
790,663	278,98
790,983	308,11
791,304	395,49
791,624	325,1
791,944	310,53
792,265	337,23
792,585	366,36
792,905	361,5
793,225	342,09
793,545	359,08
793,865	356,65
794,185	366,36
794,504	402,77
794,824	276,55
795,144	315,39
795,464	269,27
795,783	390,63
796,103	322,67
796,422	274,12
796,742	327,52
797,061	283,83
797,38	378,49
797,7	247,42
798,019	329,95
798,338	371,21
798,657	305,68
798,976	291,11
799,295	298,4
799,614	295,97
799,933	325,1
800,252	351,8
800,571	320,24
800,89	371,21
801,208	361,5
801,527	274,12
801,846	315,39
802,164	286,26
802,482	295,97
802,801	329,95
803,119	310,53
803,438	254,71
803,756	312,96
804,074	327,52
804,392	383,35
804,71	305,68
805,028	295,97
805,346	315,39
805,664	385,78
805,982	288,69
806,3	332,38
806,618	308,11
806,935	380,92
807,253	293,54
807,571	332,38
807,888	329,95
808,206	376,07
808,523	363,93
808,84	359,08
809,158	320,24
809,475	320,24
809,792	342,09
810,109	283,83
810,427	339,66
810,744	286,26
811,061	339,66
811,378	310,53
811,694	349,37
812,011	315,39
812,328	308,11
812,645	325,1
812,961	334,8
813,278	271,7
813,595	308,11
813,911	283,83
814,228	269,27
814,544	380,92
814,86	315,39
815,177	400,34
815,493	349,37
815,809	356,65
816,125	427,04
816,441	380,92
816,757	315,39
817,073	363,93
817,389	327,52
817,705	388,2
818,021	257,13
818,336	288,69
818,652	312,96
818,968	264,42
819,283	349,37
819,599	312,96
819,914	356,65
820,23	368,79
820,545	295,97
820,86	407,62
821,176	310,53
821,491	283,83
821,806	310,53
822,121	332,38
822,436	295,97
822,751	315,39
823,066	383,35
823,381	305,68
823,696	373,64
824,01	303,25
824,325	312,96
824,64	303,25
824,954	356,65
825,269	356,65
825,583	354,22
825,898	368,79
826,212	271,7
826,526	356,65
826,841	322,67
827,155	308,11
827,469	368,79
827,783	310,53
828,097	385,78
828,411	300,82
828,725	288,69
829,039	431,89
829,353	223,15
829,667	303,25
829,98	329,95
830,294	288,69
830,608	317,81
830,921	417,33
831,235	281,41
831,548	300,82
831,861	342,09
832,175	380,92
832,488	339,66
832,801	339,66
833,114	349,37
833,428	412,48
833,741	266,84
834,054	271,7
834,367	397,91
834,679	402,77
834,992	337,23
835,305	337,23
835,618	300,82
835,93	276,55
836,243	346,94
836,556	342,09
836,868	429,47
837,181	368,79
837,493	332,38
837,805	395,49
838,118	339,66
838,43	349,37
838,742	354,22
839,054	325,1
839,366	366,36
839,678	363,93
839,99	344,51
840,302	274,12
840,614	293,54
840,926	405,19
841,237	322,67
841,549	298,4
841,861	291,11
842,172	359,08
842,484	312,96
842,795	325,1
843,107	395,49
843,418	344,51
843,729	291,11
844,041	310,53
844,352	346,94
844,663	274,12
844,974	424,61
845,285	393,06
845,596	431,89
845,907	264,42
846,218	300,82
846,529	259,56
846,839	308,11
847,15	303,25
847,461	203,73
847,771	325,1
848,082	385,78
848,392	312,96
848,703	300,82
849,013	276,55
849,323	283,83
849,634	303,25
849,944	339,66
850,254	242,57
850,564	371,21
850,874	388,2
851,184	295,97
851,494	334,8
851,804	291,11
852,114	354,22
852,423	281,41
852,733	361,5
853,043	361,5
853,352	383,35
853,662	322,67
853,971	344,51
854,281	310,53
854,59	354,22
854,899	342,09
855,209	422,18
855,518	419,76
855,827	354,22
856,136	298,4
856,445	325,1
856,754	361,5
857,063	286,26
857,372	385,78
857,681	259,56
857,989	322,67
858,298	359,08
858,607	356,65
858,915	346,94
859,224	371,21
859,532	354,22
859,841	329,95
860,149	312,96
860,457	298,4
860,766	388,2
861,074	293,54
861,382	320,24
861,69	320,24
861,998	322,67
862,306	339,66
862,614	310,53
862,922	305,68
863,23	329,95
863,538	397,91
863,845	315,39
864,153	334,8
864,461	322,67
864,768	359,08
865,076	388,2
865,383	327,52
865,69	410,05
865,998	276,55
866,305	286,26
866,612	368,79
866,919	346,94
867,226	286,26
867,533	346,94
867,84	424,61
868,147	378,49
868,454	269,27
868,761	444,03
869,068	308,11
869,375	376,07
869,681	310,53
869,988	337,23
870,294	317,81
870,601	308,11
870,907	254,71
871,214	325,1
871,52	303,25
871,826	303,25
872,132	274,12
872,439	344,51
872,745	332,38
873,051	344,51
873,357	354,22
873,663	363,93
873,969	317,81
874,274	320,24
874,58	308,11
874,886	390,63
875,191	288,69
875,497	356,65
875,803	349,37
876,108	346,94
876,414	417,33
876,719	327,52
877,024	356,65
877,329	407,62
877,635	361,5
877,94	354,22
878,245	283,83
878,55	337,23
878,855	359,08
879,16	300,82
879,465	327,52
879,77	329,95
880,074	327,52
880,379	329,95
880,684	295,97
880,988	274,12
881,293	412,48
881,597	322,67
881,902	320,24
882,206	385,78
882,51	373,64
882,815	317,81
883,119	261,99
883,423	368,79
883,727	308,11
884,031	308,11
884,335	342,09
884,639	305,68
884,943	276,55
885,247	351,8
885,551	332,38
885,854	344,51
886,158	327,52
886,462	308,11
886,765	281,41
887,069	291,11
887,372	361,5
887,675	312,96
887,979	332,38
888,282	397,91
888,585	373,64
888,888	393,06
889,191	310,53
889,494	310,53
889,797	378,49
890,1	303,25
890,403	317,81
890,706	320,24
891,009	383,35
891,312	305,68
891,614	295,97
891,917	395,49
892,219	349,37
892,522	346,94
892,824	371,21
893,127	419,76
893,429	303,25
893,731	329,95
894,033	361,5
894,335	305,68
894,638	344,51
894,94	305,68
895,242	252,28
895,544	291,11
895,845	317,81
896,147	264,42
896,449	361,5
896,751	305,68
897,052	320,24
897,354	317,81
897,655	329,95
897,957	383,35
898,258	351,8
898,56	383,35
898,861	322,67
899,162	286,26
899,463	361,5
899,765	295,97
900,066	371,21
900,367	363,93
900,668	376,07
900,969	339,66
901,269	322,67
901,57	320,24
901,871	322,67
902,172	419,76
902,472	295,97
902,773	315,39
903,073	305,68
903,374	383,35
903,674	334,8
903,975	361,5
904,275	322,67
904,575	332,38
904,875	351,8
905,175	303,25
905,476	320,24
905,776	339,66
906,076	300,82
906,375	329,95
906,675	291,11
906,975	349,37
907,275	383,35
907,574	393,06
907,874	329,95
908,174	310,53
908,473	325,1
908,773	385,78
909,072	361,5
909,371	359,08
909,671	407,62
909,97	317,81
910,269	356,65
910,568	291,11
910,867	397,91
911,166	329,95
911,465	366,36
911,764	327,52
912,063	354,22
912,362	451,31
912,661	325,1
912,959	346,94
913,258	308,11
913,556	366,36
913,855	342,09
914,153	312,96
914,452	269,27
914,75	264,42
915,048	317,81
915,347	388,2
915,645	344,51
915,943	429,47
916,241	310,53
916,539	380,92
916,837	368,79
917,135	346,94
917,433	271,7
917,73	320,24
918,028	271,7
918,326	329,95
918,623	342,09
918,921	402,77
919,218	315,39
919,516	383,35
919,813	354,22
920,11	422,18
920,408	283,83
920,705	429,47
921,002	346,94
921,299	327,52
921,596	274,12
921,893	329,95
922,19	329,95
922,487	351,8
922,784	327,52
923,081	320,24
923,377	344,51
923,674	349,37
923,971	305,68
924,267	356,65
924,564	388,2
924,86	269,27
925,156	315,39
925,453	351,8
925,749	371,21
926,045	329,95
926,341	298,4
926,637	308,11
926,933	329,95
927,229	359,08
927,525	334,8
927,821	342,09
928,117	337,23
928,413	252,28
928,708	349,37
929,004	317,81
929,3	339,66
929,595	356,65
929,891	300,82
930,186	300,82
930,481	351,8
930,777	383,35
931,072	327,52
931,367	315,39
931,662	325,1
931,957	354,22
932,252	312,96
932,547	410,05
932,842	342,09
933,137	371,21
933,432	376,07
933,726	436,75
934,021	315,39
934,316	315,39
934,61	378,49
934,905	312,96
935,199	431,89
935,494	308,11
935,788	337,23
936,082	368,79
936,376	281,41
936,671	327,52
936,965	264,42
937,259	322,67
937,553	320,24
937,847	378,49
938,141	317,81
938,434	383,35
938,728	349,37
939,022	349,37
939,316	281,41
939,609	317,81
939,903	322,67
940,196	363,93
940,49	339,66
940,783	383,35
941,076	337,23
941,37	300,82
941,663	288,69
941,956	359,08
942,249	312,96
942,542	322,67
942,835	329,95
943,128	288,69
943,421	354,22
943,714	363,93
944,006	320,24
944,299	383,35
944,592	342,09
944,884	312,96
945,177	327,52
945,469	368,79
945,762	332,38
946,054	329,95
946,346	461,02
946,639	293,54
946,931	320,24
947,223	310,53
947,515	305,68
947,807	337,23
948,099	276,55
948,391	310,53
948,683	344,51
948,974	332,38
949,266	337,23
949,558	342,09
949,85	300,82
950,141	283,83
950,433	329,95
950,724	385,78
951,015	310,53
951,307	363,93
951,598	295,97
951,889	344,51
952,18	298,4
952,472	359,08
952,763	303,25
953,054	308,11
953,344	317,81
953,635	390,63
953,926	349,37
954,217	310,53
954,508	380,92
954,798	322,67
955,089	286,26
955,379	300,82
955,67	310,53
955,96	378,49
956,251	344,51
956,541	342,09
956,831	344,51
957,121	417,33
957,412	383,35
957,702	312,96
957,992	305,68
958,282	225,58
958,572	325,1
958,861	419,76
959,151	339,66
959,441	278,98
959,731	329,95
960,02	337,23
960,31	291,11
960,599	300,82
960,889	366,36
961,178	334,8
961,468	332,38
961,757	315,39
962,046	373,64
962,335	264,42
962,624	332,38
962,913	363,93
963,202	342,09
963,491	332,38
963,78	300,82
964,069	349,37
964,358	293,54
964,647	320,24
964,935	300,82
965,224	339,66
965,512	315,39
965,801	354,22
966,089	354,22
966,378	339,66
966,666	310,53
966,954	308,11
967,242	327,52
967,531	371,21
967,819	257,13
968,107	305,68
968,395	288,69
968,683	366,36
968,971	291,11
969,258	308,11
969,546	327,52
969,834	308,11
970,121	361,5
970,409	412,48
970,696	337,23
970,984	395,49
971,271	278,98
971,559	363,93
971,846	342,09
972,133	303,25
972,42	342,09
972,708	342,09
972,995	283,83
973,282	412,48
973,569	329,95
973,855	315,39
974,142	247,42
974,429	334,8
974,716	371,21
975,002	315,39
975,289	351,8
975,576	405,19
975,862	405,19
976,148	329,95
976,435	293,54
976,721	344,51
977,007	317,81
977,294	351,8
977,58	354,22
977,866	315,39
978,152	303,25
978,438	312,96
978,724	349,37
979,01	414,9
979,295	385,78
979,581	291,11
979,867	325,1
980,153	329,95
980,438	356,65
980,724	380,92
981,009	349,37
981,294	278,98
981,58	261,99
981,865	342,09
982,15	286,26
982,436	334,8
982,721	245
983,006	354,22
983,291	349,37
983,576	346,94
983,861	337,23
984,145	286,26
984,43	337,23
984,715	359,08
985	361,5
985,284	361,5
985,569	371,21
985,853	317,81
986,138	383,35
986,422	378,49
986,706	329,95
986,991	300,82
987,275	376,07
987,559	337,23
987,843	383,35
988,127	393,06
988,411	363,93
988,695	274,12
988,979	337,23
989,263	395,49
989,546	342,09
989,83	342,09
990,114	373,64
990,397	342,09
990,681	317,81
990,964	359,08
991,247	407,62
991,531	312,96
991,814	295,97
992,097	361,5
992,38	349,37
992,664	325,1
992,947	261,99
993,23	371,21
993,513	349,37
993,795	300,82
994,078	380,92
994,361	373,64
994,644	383,35
994,926	388,2
995,209	276,55
995,492	295,97
995,774	269,27
996,056	380,92
996,339	344,51
996,621	298,4
996,903	342,09
997,186	361,5
997,468	305,68
997,75	351,8
998,032	312,96
998,314	325,1
998,596	305,68
998,877	337,23
999,159	315,39
999,441	286,26
999,723	351,8
1000,004	366,36
1000,286	278,98
1000,567	332,38
1000,849	371,21
1001,13	295,97
1001,411	376,07
1001,693	346,94
1001,974	417,33
1002,255	427,04
1002,536	395,49
1002,817	376,07
1003,098	337,23
1003,379	349,37
1003,66	412,48
1003,941	327,52
1004,222	356,65
1004,502	298,4
1004,783	407,62
1005,063	410,05
1005,344	288,69
1005,624	346,94
1005,905	380,92
1006,185	266,84
1006,465	325,1
1006,746	337,23
1007,026	283,83
1007,306	286,26
1007,586	351,8
1007,866	332,38
1008,146	322,67
1008,426	300,82
1008,706	337,23
1008,985	310,53
1009,265	310,53
1009,545	291,11
1009,824	257,13
1010,104	269,27
1010,383	349,37
1010,663	344,51
1010,942	359,08
1011,221	361,5
1011,501	298,4
1011,78	349,37
1012,059	424,61
1012,338	354,22
1012,617	325,1
1012,896	351,8
1013,175	368,79
1013,454	327,52
1013,733	332,38
1014,011	337,23
1014,29	291,11
1014,569	393,06
1014,847	342,09
1015,126	354,22
1015,404	308,11
1015,683	320,24
1015,961	410,05
1016,239	349,37
1016,517	337,23
1016,795	376,07
1017,074	368,79
1017,352	325,1
1017,63	344,51
1017,907	376,07
1018,185	380,92
1018,463	363,93
1018,741	283,83
1019,019	322,67
1019,296	351,8
1019,574	276,55
1019,851	327,52
1020,129	329,95
1020,406	349,37
1020,683	339,66
1020,961	322,67
1021,238	322,67
1021,515	322,67

